# time,theta,x,omega,v
0.000000000000000000e+00,5.999999999999999289e+01,4.000000000000000000e+00,-2.999999999999999645e+01,0.000000000000000000e+00
4.004004004004003969e-02,5.875603176622049517e+01,4.004450116725208453e+00,-3.212058916360567196e+01,2.259359526375121774e-01
8.008008008008007939e-02,5.742901103131208629e+01,4.018354914657631838e+00,-3.413929873581306396e+01,4.739430916438205910e-01
1.201201201201201191e-01,5.602357867896002830e+01,4.042635483783096007e+00,-3.603490095280633199e+01,7.444350227172226164e-01
1.601601601601601588e-01,5.454521925569866880e+01,4.078227385493601531e+00,-3.778623281050229110e+01,1.037490429867898634e+00
2.002002002002001846e-01,5.300005791590341175e+01,4.126030702072783107e+00,-3.937425359176639716e+01,1.352844661802107940e+00
2.402402402402402382e-01,5.139486042179066061e+01,4.186910036695907777e+00,-4.078204486641276105e+01,1.689889731922191496e+00
2.802802802802802917e-01,4.973703314341785386e+01,4.261694513429871378e+00,-4.199481049120415577e+01,2.047674318326567988e+00
3.203203203203203175e-01,4.803462305868344373e+01,4.351177777233203869e+00,-4.299987660985197380e+01,2.424903763809737711e+00
3.603603603603603434e-01,4.629631305723192014e+01,4.456117417820130377e+00,-4.378663743405951436e+01,2.819941223024021060e+00
4.004004004004003692e-01,4.453030996212973491e+01,4.577077558029915672e+00,-4.433603413475697863e+01,3.231027329772034662e+00
4.404404404404404505e-01,4.274587687695737515e+01,4.714599820727700674e+00,-4.464897064557872142e+01,3.655809941287775811e+00
4.804804804804804763e-01,4.095279278760526154e+01,4.869252933080706391e+00,-4.474153518681740849e+01,4.091676415031016312e+00
5.205205205205205576e-01,3.916009753694280704e+01,5.041502444363016089e+00,-4.462971591029960905e+01,4.536107764902976847e+00
5.605605605605605835e-01,3.737609182481843817e+01,5.231710725955577068e+00,-4.432940089938585260e+01,4.986678661246320310e+00
6.006006006006006093e-01,3.560833720805957370e+01,5.440136971346198891e+00,-4.385637816897055785e+01,5.441057430845157583e+00
6.406406406406406351e-01,3.386365610047262464e+01,5.666937196129552490e+00,-4.322633566548209672e+01,5.897006056925042650e+00
6.806806806806806609e-01,3.214813177284300849e+01,5.912164238007173722e+00,-4.245486126688273743e+01,6.352380179152975259e+00
7.207207207207206867e-01,3.046710835293513142e+01,6.175767756787461593e+00,-4.155744278266869429e+01,6.805129093637402704e+00
7.607607607607607125e-01,2.882519082549243450e+01,6.457594234385673815e+00,-4.054946795387009217e+01,7.253295752928211826e+00
8.008008008008007383e-01,2.722624503223730841e+01,6.757386974823936576e+00,-3.944622445305098779e+01,7.695016766016742338e+00
8.408408408408408752e-01,2.567339767187118227e+01,7.074786104231235662e+00,-3.826289988430936972e+01,8.128522398335773502e+00
8.808808808808809010e-01,2.416903630007447745e+01,7.409328570843417339e+00,-3.701458178327712290e+01,8.552136571759531236e+00
9.209209209209209268e-01,2.271480932950659337e+01,7.760448145003197240e+00,-3.571625761712009250e+01,8.964276864603686334e+00
9.609609609609609526e-01,2.131186275443273814e+01,8.127528502440021896e+00,-3.438396775969133756e+01,9.363549116865300448e+00
1.001001001001001089e+00,1.996300021418303317e+01,8.510469201194663214e+00,-3.304466842540011129e+01,9.749779901102989754e+00
1.041041041041041115e+00,1.866818206127693713e+01,8.908747376234472881e+00,-3.171177314447373874e+01,1.012229724274301468e+01
1.081081081081081141e+00,1.742639255842970414e+01,9.321669534021392423e+00,-3.039343509023145984e+01,1.048025635835147895e+01
1.121121121121121167e+00,1.623653282881692661e+01,9.748551554854275381e+00,-2.909690836524639934e+01,1.082294935595760776e+01
1.161161161161161193e+00,1.509742085607455842e+01,1.018871869286888199e+01,-2.782854800134563078e+01,1.114980523505375665e+01
1.201201201201201219e+00,1.400779148429890419e+01,1.064150557603788272e+01,-2.659380995961013738e+01,1.146038988659540259e+01
1.241241241241241244e+00,1.296629641804660871e+01,1.110625620617086184e+01,-2.539725113037483695e+01,1.175440609300114581e+01
1.281281281281281270e+00,1.197150422233467637e+01,1.158232395891431565e+01,-2.424252933322856762e+01,1.203169352815271509e+01
1.321321321321321296e+00,1.102190032264046593e+01,1.206907158375164713e+01,-2.313240331701408792e+01,1.229222875739496246e+01
1.361361361361361322e+00,1.011588700490167092e+01,1.256587120400316593e+01,-2.206873275982809091e+01,1.253612523753586316e+01
1.401401401401401348e+00,9.251783415516351639e+00,1.307210431682610619e+01,-2.105247826902118291e+01,1.276363331684651925e+01
1.441441441441441373e+00,8.427825561342910277e+00,1.358716179321459805e+01,-2.008370138119790482e+01,1.297514023506115421e+01
1.481481481481481399e+00,7.642166309700100690e+00,1.411044387799968902e+01,-1.916156456221670723e+01,1.317117012337712367e+01
1.521521521521521425e+00,6.892875388367028400e+00,1.464136018984933862e+01,-1.828433120718998239e+01,1.335238400445489582e+01
1.561561561561561451e+00,6.177939385583150589e+00,1.517932972126841662e+01,-1.744936564048403937e+01,1.351957979241807628e+01
1.601601601601601477e+00,5.495371705736254775e+00,1.572377882105160829e+01,-1.665381561316263870e+01,1.367325681676583038e+01
1.641641641641641725e+00,4.843790202289324220e+00,1.627411045965177294e+01,-1.589775534904389964e+01,1.381197715892798428e+01
1.681681681681681750e+00,4.221719246505565515e+00,1.682970899735924419e+01,-1.517971537209286659e+01,1.393561930737449650e+01
1.721721721721721776e+00,3.627691651311325760e+00,1.738996471919035969e+01,-1.449792621912274093e+01,1.404430911854467112e+01
1.761761761761761802e+00,3.060299166045284291e+00,1.795427454134305734e+01,-1.385066889247619670e+01,1.413817413526330746e+01
1.801801801801801828e+00,2.518192476458439355e+00,1.852204201119686289e+01,-1.323627486002538944e+01,1.421734358674069654e+01
1.841841841841841854e+00,2.000081204714115657e+00,1.909267730731290413e+01,-1.265312605517194200e+01,1.428194838857261928e+01
1.881881881881881879e+00,1.504733909387959923e+00,1.966559723943391447e+01,-1.209965487684695695e+01,1.433212114274035542e+01
1.921921921921921905e+00,1.030978085467943117e+00,2.024022524848421511e+01,-1.157434418951100952e+01,1.436799613761067285e+01
1.961961961961961931e+00,5.777001643543587805e-01,2.081599140656972580e+01,-1.107572732315414932e+01,1.438970934793583467e+01
2.002002002002002179e+00,1.438455138598233318e-01,2.139233241697797183e+01,-1.060238807329590038e+01,1.439739843485359749e+01
2.042042042042042205e+00,-2.715815617907176849e-01,2.196869161417806282e+01,-1.015296070098526293e+01,1.439120274588720960e+01
2.082082082082082231e+00,-6.695178219600032010e-01,2.254451896382071752e+01,-9.726129932800713362e+00,1.437126331494541098e+01
2.122122122122122256e+00,-1.050841089598443689e+00,2.311927106273824606e+01,-9.320630960850200708e+00,1.433772286232243687e+01
2.162162162162162282e+00,-1.416370251244127410e+00,2.369241113894456774e+01,-8.935249442771146633e+00,1.429072579469801418e+01
2.202202202202202308e+00,-1.766865257022820046e+00,2.426340905163517903e+01,-8.568821501730448986e+00,1.423041820513736511e+01
2.242242242242242334e+00,-2.103027120647958714e+00,2.483174129118719264e+01,-8.220233726424481802e+00,1.415694787309119995e+01
2.282282282282282360e+00,-2.425502453242383005e+00,2.539689396344498107e+01,-7.888419056264638130e+00,1.407046620952063165e+01
2.322322322322322385e+00,-2.735011312139513873e+00,2.595843163616959615e+01,-7.572291142165917144e+00,1.397117972764313620e+01
2.362362362362362411e+00,-3.032174960999348023e+00,2.651585000779829926e+01,-7.270988143735505282e+00,1.385926570041258188e+01
2.402402402402402437e+00,-3.317534977593856294e+00,2.706861107998901517e+01,-6.983748882878543895e+00,1.373488145207296363e+01
2.442442442442442463e+00,-3.591613474440840559e+00,2.761618809148360754e+01,-6.709837700395266502e+00,1.359819099278544030e+01
2.482482482482482489e+00,-3.854913098803936400e+00,2.815806551810788605e+01,-6.448544455981000567e+00,1.344936501862832223e+01
2.522522522522522515e+00,-4.107917032692614434e+00,2.869373907277160640e+01,-6.199184528226170166e+00,1.328858091159708010e+01
2.562562562562562540e+00,-4.351088992862177207e+00,2.922271570546845254e+01,-5.961098814616289765e+00,1.311602273960434140e+01
2.602602602602602566e+00,-4.584873230813760969e+00,2.974451360327606864e+01,-5.733653731531969555e+00,1.293188125647988507e+01
2.642642642642642592e+00,-4.809694532794335231e+00,3.025866219035603066e+01,-5.516241214248911895e+00,1.273635390197065753e+01
2.682682682682682618e+00,-5.025958219796704540e+00,3.076470212795385351e+01,-5.308278716937914865e+00,1.252964480174075135e+01
2.722722722722722644e+00,-5.234050147559505817e+00,3.126218531439900516e+01,-5.109209212664868716e+00,1.231196476737142120e+01
2.762762762762762669e+00,-5.434336706567209241e+00,3.175067488510489255e+01,-4.918501193390758530e+00,1.208353129636108036e+01
2.802802802802802695e+00,-5.627164822050118254e+00,3.222974521256885794e+01,-4.735648669971662450e+00,1.184456857212529357e+01
2.842842842842842721e+00,-5.812861953984368668e+00,3.269898190637219670e+01,-4.560171172158752562e+00,1.159530746399679124e+01
2.882882882882882747e+00,-5.991736097091934887e+00,3.315798181318012894e+01,-4.391613748598295786e+00,1.133598552722544817e+01
2.922922922922922773e+00,-6.164075780840618357e+00,3.360635301674184916e+01,-4.229546966831650323e+00,1.106684700297831014e+01
2.962962962962962798e+00,-6.330150069444057337e+00,3.404371483789046238e+01,-4.073566913295269210e+00,1.078814281833956734e+01
3.003003003003002824e+00,-6.490208561861722458e+00,3.446969783454301961e+01,-3.923295193320702534e+00,1.050013058631057561e+01
3.043043043043042850e+00,-6.644481391798921166e+00,3.488394380170053921e+01,-3.778378931134588115e+00,1.020307460580984404e+01
3.083083083083082876e+00,-6.793179227706786172e+00,3.528610577144795712e+01,-3.638490769858664819e+00,9.897245861673038547e+00
3.123123123123122902e+00,-6.936493272782295882e+00,3.567584801295416241e+01,-3.503328871509756137e+00,9.582922024652983595e+00
3.163163163163162928e+00,-7.074595264968249531e+00,3.605284603247197595e+01,-3.372616916999787939e+00,9.260387451419660465e+00
3.203203203203202953e+00,-7.207637476953288491e+00,3.641678657333817881e+01,-3.246104106135773826e+00,8.929933184560205461e+00
3.243243243243243423e+00,-7.335752716171883847e+00,3.676736761597348391e+01,-3.123565157619825339e+00,8.591856952578911688e+00
3.283283283283283449e+00,-7.459054324804341718e+00,3.710429837788254304e+01,-3.004800309049146634e+00,8.246463169897236156e+00
3.323323323323323475e+00,-7.577636179776799707e+00,3.742729931365394691e+01,-2.889635316916034924e+00,7.894062936853782020e+00
3.363363363363363501e+00,-7.691572692761231345e+00,3.773610211496025357e+01,-2.777921456607879147e+00,7.534974039704314563e+00
3.403403403403403527e+00,-7.800918810175441642e+00,3.803044971055793155e+01,-2.669535522407169292e+00,7.169520950621758537e+00
3.443443443443443552e+00,-7.905740121527577102e+00,3.831011812765606805e+01,-2.564327054434841546e+00,6.798019752767721080e+00
3.483483483483483578e+00,-8.006330626019339647e+00,3.857502951319941786e+01,-2.461781540427940396e+00,6.420686051221260904e+00
3.523523523523523604e+00,-8.102845765314070192e+00,3.882494841647574901e+01,-2.361697294550980875e+00,6.037832156765970737e+00
3.563563563563563630e+00,-8.195388134813686776e+00,3.905961455508457192e+01,-2.263961654373733534e+00,5.649797128146679448e+00
3.603603603603603656e+00,-8.284054913938462050e+00,3.927878427385001459e+01,-2.168460668793506851e+00,5.256920356016732576e+00
3.643643643643643681e+00,-8.368937866127026837e+00,3.948223054482083683e+01,-2.075079098035149450e+00,4.859541562937993220e+00
3.683683683683683707e+00,-8.450123338836363018e+00,3.966974296727041605e+01,-1.983700413651046768e+00,4.458000803380839372e+00
3.723723723723723733e+00,-8.527692263541815976e+00,3.984112776769673303e+01,-1.894206798521124613e+00,4.052638463724168361e+00
3.763763763763763759e+00,-8.601720155737082152e+00,3.999620779982241459e+01,-1.806479146852847828e+00,3.643795262255392853e+00
3.803803803803803785e+00,-8.672277114934212605e+00,4.013482254459467669e+01,-1.720397064181218516e+00,3.231812249170440410e+00
3.843843843843843811e+00,-8.739427824663618338e+00,4.025682811018538132e+01,-1.635838867368779370e+00,2.817030806573758817e+00
3.883883883883883836e+00,-8.803231552474063193e+00,4.036209723199098676e+01,-1.552681584605611231e+00,2.399792648478310753e+00
3.923923923923923862e+00,-8.863742149932667402e+00,4.045051927263258307e+01,-1.470800955409333755e+00,1.980439820805574236e+00
3.963963963963963888e+00,-8.921008052624907592e+00,4.052200022195588502e+01,-1.390071430625105853e+00,1.559314701385549284e+00
4.004004004004004358e+00,-8.975072280154620330e+00,4.057646269703120367e+01,-1.310366172425623033e+00,1.136759999956738376e+00
4.044044044044044384e+00,-9.025972436143989697e+00,4.061384594215350319e+01,-1.231557054311124721e+00,7.131187581661855290e-01
4.084084084084084409e+00,-9.073740708233559715e+00,4.063410582884232980e+01,-1.153514661109384498e+00,2.887343495694301154e-01
4.124124124124124435e+00,-9.118403868082232577e+00,4.063721485584187576e+01,-1.076108288975716976e+00,-1.360495203694638278e-01
4.164164164164164461e+00,-9.159983271367265090e+00,4.062316214912094381e+01,-9.992059453929751367e-01,-5.608888142779173691e-01
4.204204204204204487e+00,-9.198494857784268675e+00,4.059195346187295428e+01,-9.226743491715496681e-01,-9.854391628748331300e-01
4.244244244244244513e+00,-9.233949151047212922e+00,4.054361117451594509e+01,-8.463789304493724019e-01,-1.409355864970597061e+00
4.284284284284284539e+00,-9.266351258888418485e+00,4.047817429469257178e+01,-7.701838306919123189e-01,-1.832293887467081994e+00
4.324324324324324564e+00,-9.295700873058569513e+00,4.039569845727012876e+01,-6.939519026921781020e-01,-2.253907865357638762e+00
4.364364364364364590e+00,-9.321992269326695890e+00,4.029625592434049253e+01,-6.175447105707170259e-01,-2.673852101727102415e+00
4.404404404404404616e+00,-9.345214307480194549e+00,4.017993558522019981e+01,-5.408225297756157346e-01,-3.091780567751796660e+00
4.444444444444444642e+00,-9.365350431324813485e+00,4.004684295645037651e+01,-4.636443470824975766e-01,-3.507346902699517877e+00
4.484484484484484668e+00,-9.382378668684651757e+00,3.989710018179678030e+01,-3.858678605945284334e-01,-3.920204413929559983e+00
4.524524524524524693e+00,-9.396271631402170144e+00,3.973084603224977940e+01,-3.073494797424091707e-01,-4.330006076892689570e+00
4.564564564564564719e+00,-9.406996515338187592e+00,3.954823590602437378e+01,-2.279443252843831869e-01,-4.736404535131160110e+00
4.604604604604604745e+00,-9.414515100371872336e+00,3.934944182856017392e+01,-1.475062293062294749e-01,-5.139052100278704849e+00
4.644644644644644771e+00,-9.418783750400750776e+00,3.913465245252141500e+01,-6.588773522126877003e-02,-5.537600752060549247e+00
4.684684684684684797e+00,-9.419753413340707482e+00,3.890407305779694269e+01,1.705990222964265043e-02,-5.931702138293391435e+00
4.724724724724724823e+00,-9.417369621125981638e+00,3.865792555150022025e+01,1.014867169781052125e-01,-6.321007574885418201e+00
4.764764764764764848e+00,-9.411572489709168821e+00,3.839644846796934985e+01,1.875440316281852815e-01,-6.705168045836296109e+00
4.804804804804804874e+00,-9.402296719061215668e+00,3.811989696876702993e+01,2.753844574564063841e-01,-7.083834203237180382e+00
4.844844844844844900e+00,-9.389471593171434094e+00,3.782854284268059075e+01,3.651618944117556720e-01,-7.456656367270709573e+00
4.884884884884884926e+00,-9.372996689703445128e+00,3.752261195368765101e+01,4.571368572287309306e-01,-7.823353566266445291e+00
4.924924924924924952e+00,-9.352738872101760137e+00,3.720218554880203499e+01,5.517231328989233852e-01,-8.183800565723519327e+00
4.964964964964964977e+00,-9.328649283248935831e+00,3.686750731437668804e+01,6.489722888390514477e-01,-8.537687374111307292e+00
5.005005005005005003e+00,-9.300668472049189006e+00,3.651884440713133273e+01,7.489421337974262460e-01,-8.884696032525228659e+00
5.045045045045045029e+00,-9.268719968983374358e+00,3.615647444430665303e+01,8.517231816723784821e-01,-9.224515782120016993e+00
5.085085085085085055e+00,-9.232710286108979147e+00,3.578068550366430856e+01,9.574386515122587094e-01,-9.556843064109719066e+00
5.125125125125125081e+00,-9.192528917060135640e+00,3.539177612348690616e+01,1.066244467515437444e+00,-9.881381519767698407e+00
5.165165165165165106e+00,-9.148048337047606893e+00,3.499005530257801411e+01,1.178329259030304721e+00,-1.019784199042663708e+01
5.205205205205205132e+00,-9.099124002858795635e+00,3.457584250026214789e+01,1.293914360555270093e+00,-1.050594251747853036e+01
5.245245245245245158e+00,-9.045594352857742493e+00,3.414946763638480576e+01,1.413253811738762966e+00,-1.080540834237468673e+01
5.285285285285285184e+00,-8.987280806985118886e+00,3.371127109131242605e+01,1.536634357379232929e+00,-1.109597190662573496e+01
5.325325325325325210e+00,-8.923987766758243012e+00,3.326160370593241566e+01,1.664375447425148424e+00,-1.137737285180161884e+01
5.365365365365365236e+00,-8.855502615271060307e+00,3.280082678165313581e+01,1.796829236974998301e+00,-1.164935801953159356e+01
5.405405405405405261e+00,-8.781595717194164763e+00,3.232931208040390203e+01,1.934380586277291592e+00,-1.191168145150423641e+01
5.445445445445445287e+00,-8.702020418774775834e+00,3.184744182463499840e+01,2.077447060730555073e+00,-1.216410438946743433e+01
5.485485485485485313e+00,-8.616513047836756201e+00,3.135560869731766331e+01,2.226478930883337704e+00,-1.240639527522839280e+01
5.525525525525525339e+00,-8.524792913780604664e+00,3.085421584194409661e+01,2.381959172434206629e+00,-1.263832975065363229e+01
5.565565565565565365e+00,-8.426562307583457923e+00,3.034367686252744889e+01,2.544403466231748734e+00,-1.285969065766899178e+01
5.605605605605605390e+00,-8.321506501799085243e+00,2.982441582360183929e+01,2.714360198274571978e+00,-1.307026803825962169e+01
5.645645645645645416e+00,-8.209293750557900893e+00,2.929686725022234484e+01,2.892410459711301840e+00,-1.326985913446998921e+01
5.685685685685685442e+00,-8.089575289566948157e+00,2.876147612796499686e+01,3.079168046840586204e+00,-1.345826838840387829e+01
5.725725725725725468e+00,-7.961985336109915323e+00,2.821869790292678815e+01,3.275279461111090029e+00,-1.363530744222438784e+01
5.765765765765765494e+00,-7.826141089047117916e+00,2.766899848172566578e+01,3.481423909121500238e+00,-1.380079513815393355e+01
5.805805805805805520e+00,-7.681642728815518240e+00,2.711285423150054896e+01,3.698313302620520382e+00,-1.395455751847424253e+01
5.845845845845845545e+00,-7.528073417428709391e+00,2.655075197991129698e+01,3.926692258506878641e+00,-1.409642782552636930e+01
5.885885885885885571e+00,-7.364999298476923251e+00,2.598318901513874479e+01,4.167338098829318938e+00,-1.422624650171066563e+01
5.925925925925925597e+00,-7.191969497127029598e+00,2.541067308588467455e+01,4.421060850786605378e+00,-1.434386118948681599e+01
5.965965965965965623e+00,-7.008516120122536108e+00,2.483372240137183695e+01,4.688703246727523144e+00,-1.444912673137380921e+01
6.006006006006005649e+00,-6.814154255783583913e+00,2.425286563134393347e+01,4.971140724150876267e+00,-1.454190516994995619e+01
6.046046046046045674e+00,-6.608381974006954707e+00,2.366864190606563056e+01,5.269281425705488964e+00,-1.462206574785287927e+01
6.086086086086085700e+00,-6.390680326266064526e+00,2.308160081632254901e+01,5.584066199190204749e+00,-1.468948490777952642e+01
6.126126126126125726e+00,-6.160456082114602161e+00,2.249228375071765385e+01,5.916509629236163192e+00,-1.474404221962743300e+01
6.166166166166165752e+00,-5.916769754564707995e+00,2.190112414788682926e+01,6.268033681909007448e+00,-1.478559129059699728e+01
6.206206206206205778e+00,-5.658813055516656476e+00,2.130860946681800883e+01,6.640210029335109176e+00,-1.481398611250111941e+01
6.246246246246245803e+00,-5.385732198662511294e+00,2.071524988321233351e+01,7.034700155294493662e+00,-1.482908013866145502e+01
